#ALMA number counts from Shark (Lagos et al. 2019). 
#Columns:
#1) log10(S/mJy) 
#2) N_total(>S)/area [deg^-2]
#3) N_disk(>S)/area [deg^-2]
#4) N_bulge(>S)/area [deg^-2]
#band 7
-2.0 212049.522634 175824.291546 80071.9248918
-1.75 175206.382406 137170.37174 68814.0729644
-1.5 136912.150793 96732.0105368 57776.9516002
-1.25 100057.561761 59655.1189552 46857.6402061
-1.0 67947.2561529 31426.8772773 36057.7107681
-0.75 41930.1759222 13365.8851605 25643.3628031
-0.5 23136.8162876 4324.85976188 16312.8250385
-0.25 11369.1366725 1128.92323273 9001.54778782
0.0 4883.27071513 269.165528269 4183.29204106
0.25 1763.47169684 65.5488504105 1578.03666844
0.5 508.730263458 15.4232589201 464.002812589
0.75 127.063925411 4.41935688288 116.178663827
1.0 30.6388970471 1.36436521216 27.9694868494
1.25 6.88114628744 0.415241586311 5.87270243497
1.5 2.28382872471 0.0889803399238 2.07620793156
1.75 0.682182606082 0.0593202266159 0.533882039543
2.0 0.0593202266159 0.0296601133079 0.0296601133079
2.25 0.0 0.0 0.0
2.5 0.0 0.0 0.0
2.75 0.0 0.0 0.0