#ALMA number counts from Shark (Lagos et al. 2019). 
#Columns:
#1) log10(S/mJy) 
#2) N_total(>S)/area [deg^-2]
#3) N_disk(>S)/area [deg^-2]
#4) N_bulge(>S)/area [deg^-2]
#band 9
-2.0 306792.110731 266430.895483 104521.112213
-1.75 265343.555729 224612.360227 90499.2639864
-1.5 220841.314101 179600.05363 77666.6676632
-1.25 173999.868316 133473.594537 65375.694669
-1.0 131378.849035 93413.904001 53311.6512018
-0.75 96540.1392638 62455.9234549 41452.7667384
-0.5 68064.6212213 39149.6292799 30249.8156807
-0.25 44315.7684956 21840.6396759 20598.1182092
0.0 25316.923596 10159.7455524 13067.6527212
0.25 12521.0464931 3839.17540647 7539.48216242
0.5 5524.81896598 1253.46604851 3823.36656607
0.75 2204.16166037 388.933065807 1659.00877777
1.0 802.869607132 125.729220312 627.430036916
1.25 269.521449629 42.1766811239 211.328307319
1.5 86.6965111991 13.8216128015 67.5657381155
1.75 30.3126358007 4.98289903573 23.6094501931
2.0 10.0547784114 1.95756747832 7.41502832698
2.25 3.52955348364 0.533882039543 2.81771076425
2.5 1.15674441901 0.0889803399238 0.978783739162
2.75 0.237280906463 0.0296601133079 0.14830056654